!          P3 (Pa)           P4 (Pa)           P7 (Pa)            T3 (K)            T4 (K)            T5 (K)         W3 (kg/s)        
 1338328.389036217   1294656.89909915    83191.687379075      650.254886073     1167.982910241      592.780259259       14.293261747
 1331678.394550842  1288232.265450338    83151.591094458      649.444265405      1166.84313119       592.90956123       14.229744004
 1324983.975973744  1281765.637686267    83111.411529353      648.624397038     1165.714777624      593.057302089       14.165617623
 1318538.885525505  1275539.708777061    83072.871210787      647.833183945     1164.623312935      593.200574721       14.103852445
 1312230.303852624  1269443.979857684    83035.209849645      647.056562962      1163.50972881      593.311811056       14.043624384
 1305828.299009313  1263258.026501396    82997.127238828      646.265292767     1162.376956125      593.426456954       13.982461941
 1299473.389951021  1257116.814026525    82959.445112873      645.479068866     1161.232552634      593.531319918       13.921814574
 1293015.787290993  1250876.937008542    82921.316232333      644.676776716     1160.080424729      593.649628348       13.860058111
 1286831.737887576  1244901.403820083    82884.940518962       643.90627355     1158.975112535       593.76594177       13.800871879
 1280182.212677195   1238475.43315435    82845.958300847      643.076566621     1157.768637276      593.883760436       13.737278074
 1273780.272467412  1232288.641754212    82808.572566874      642.275506829     1156.602457081      593.998824509       13.676017259
 1267294.602386601  1226021.573883234    82770.863590095      641.460421642     1155.433504488       594.12857329       13.613814787
 1260850.019627591   1219793.47293698    82733.519787316       640.64937232      1154.25179535       594.24878981       13.552066695
 1254401.991767668  1213562.058566028     82696.30347891      639.835402666     1153.067049908      594.372327348        13.49023624
 1247763.515491394  1207146.905213622      82658.1504504      638.994266138     1151.851933342      594.507783544       13.426484288
 1241283.723133319  1200884.760066146    82621.050467311      638.171250104     1150.654831487      594.637676602       13.364257378
 1234607.030344486  1194432.629152699    82582.987247091      637.320045265     1149.425724179      594.779806096       13.300044653
 1228136.667557643   1188179.70949443    82546.246185553      636.492827583     1148.227314721       594.91786362       13.237793743
 1221413.755610494  1181682.865635527    82508.232349334      635.630340078     1146.982492862      595.067084074       13.173041192
 1215032.247516606  1175516.181056299    82472.304005325      634.808652245     1145.803915415       595.21605798       13.111492967
 1208229.941632048  1168941.652484074    82434.132704067      633.931849449     1144.514052719      595.357857771       13.046015165
 1176369.930515698  1138081.328620955    82255.735826535      629.897509333     1136.705147742       594.89592216        12.74866107
 1170094.125008737  1132018.968432054    82221.463381368      629.084972633     1135.602699862      595.111249588       12.687305636
 1209195.853793856  1169936.525412829    82441.228812882       633.96052167     1146.244264042      596.385521824       13.046122729
 1279646.299565562  1238252.790250471    82851.333850043      642.486082992     1164.671987057      598.598301998       13.689010071
  423875.967714418   408060.882620677    79131.957778021       468.44112925      754.196635947      481.381024389        5.703224446
  423188.236894962   407400.984991949    79198.256728971      468.135353353      753.834854586      481.393868894        5.695438311
  499488.930743191   481316.120934909    79495.066769795      492.420399844       810.40863795      502.926697278        6.472898035
  596878.331127448   576046.648851124    79888.495049223       521.32155218      890.528102641      535.483172357        7.362834647
  621669.647299461   600198.464605099    80060.938235771      528.115213598      910.625798341      543.944999722        7.579425446
  576947.995118927   556625.816491517    79996.913290633      515.466174707      873.271051826       528.48846734        7.190286408
  577428.328421187   557087.858259391    80085.928652912      515.526701093      873.309669168      528.546560684        7.196092945
  577921.055063216   557561.962282151    80175.063837513       515.59072425      873.358353882      528.608752035        7.202010178
  578706.047335111   558322.140087819    80265.244457991      515.742765997      873.718799882      528.817267085        7.210227438
  579080.345528835   558680.931431028    80354.152041992       515.77227438      873.668502538      528.839270271        7.215095309
  579460.771001472    559047.21057876    80443.172038343      515.807007447      873.692546506      528.911226912        7.219723903
   580271.03227377   559830.456271828     80533.66044941      515.962337043      874.003180087      529.079779617        7.228460612
  580511.176420399   560058.623892992    80622.369735018      515.952879391      873.841338337      529.056549238        7.232140258
  580825.387576609   560360.432937042    80711.413331211      515.968269525      873.810239841      529.106191885        7.236182318
  581268.733747567    560786.43587129    80800.944948765      516.017364376      873.816450482      529.151223518        7.241665686
  582202.920626096   561690.313349458    80892.154852002      516.207795224      874.227517904      529.360480981         7.25150503
  582609.707369258   562082.247550702    80981.739433005      516.249611711      874.272302011      529.440944317        7.256369744
  583103.974506838   562557.814178343    81071.676250432      516.313031197      874.319598966       529.50264899        7.262306989
  584303.903547412   563720.404617537    81163.991282449      516.579097779        874.9473419      529.799860208        7.274504033
  584021.205660479   563441.056438744    81251.570547301      516.422573495      874.424304357      529.649999766        7.273254233
  584279.133968424   563686.520121751    81340.978880214       516.41784681      874.276786194      529.632776879        7.277096168
  584847.186897778   564233.907746459    81431.476130153      516.502110317      874.383887635      529.718770019        7.283690847
  585188.926092288       564562.50741    81521.330521728       516.52480286      874.374592958       529.77744402        7.287980181
  585704.880265183   565059.166929213    81611.818890726      516.593926002      874.438482804      529.845949143        7.294113709
  586287.717726374   565620.936080431    81702.604836097       516.68209916      874.556832778      529.936517325        7.300841585
  586639.929576776    565959.72791145    81792.734635235      516.707578145      874.555794551      529.998597444        7.305224861
  587175.158136262   566475.140522538    81883.526703916      516.781915007      874.634680222       530.07320073        7.311531409
  587778.872444648   567057.221817766    81974.621542166      516.875713053      874.769156921      530.170313592        7.318446553
  588122.699026362   567387.846449192    82064.965938207      516.898573657      874.760917577      530.229536553        7.322756435
  588664.391587374   567909.540343995     82156.02054044      516.974439375      874.844257767      530.305965568        7.329122309
  589123.671086974   568352.559398804    82246.901045651      517.030108195      874.929853396       530.40320342        7.334457549
  589659.302010707   568868.344967547    82338.097296203      517.104029538      875.007710446      530.477428767        7.340770824
  590268.843668868   569456.079040538    82429.613929783      517.198892491      875.145315138      530.575829815        7.347740885
  590860.767251155   570028.222695748    82521.166809767      517.292019215      875.337908179      530.716390565        7.354254533
  591149.073362977   570303.223779432    82611.803650401      517.295214063      875.214190358      530.709100435        7.358374471
  591785.648688172    570917.26263416    82703.650288556      517.397403973      875.372728575      530.815979071        7.365586467
    592045.5452781   571166.172595575    82794.370162251      517.395831388      875.295631641      530.847522846        7.369153933
  592930.250470267    572021.75634304    82887.182403865      517.568237282      875.654247145      531.035298974        7.378569677
  593830.403064046   572892.374987668    82980.125985241      517.744711965      876.024525198      531.227825247        7.388122312
  593701.320398138   572762.609587858    83069.829076067      517.632664582      875.632854087      531.132201712        7.388239223
  594330.885787866   573369.803530102    83162.058047691      517.732232326      875.783987306      531.236103921        7.395392161
  594687.386961639   573711.170927105    83253.484481856       517.75434108      875.714639468      531.250922967        7.400121871
  595067.038417769   574076.653778605    83345.080087711       517.78633856      875.733730792      531.321466961        7.404754447
  595591.365207692   574581.389224646    83437.212468239      517.855811483      875.799306419      531.390828011         7.41097514
  596228.757494532   575196.184846061     83529.79181872      517.957128748       875.95546734       531.49677274        7.418200381
  596580.218233148   575534.220985202    83621.540885552      517.980924107      875.951486534      531.558053609        7.422583727
   597074.47490518    576009.67337289    83713.820560129      518.041601192      875.992161664      531.617389489        7.428539367
  597636.959486082     576551.5376065    83806.402273128      518.121427856      876.087286006      531.698709565        7.435101534
  598040.893089749   576940.649903413    83898.566132079      518.159808276      876.125045124      531.776898533        7.439951742
  598710.884771958   577587.158266252    83991.658341926      518.269703964      876.305638894      531.892718397        7.447469665
  599093.968103288   577955.971523393    84083.918477889      518.302038478      876.326386691      531.964076198        7.452135379
   599599.99630695   578442.864988392    84176.644827718      518.365544604      876.375294271      532.026782166        7.458198665
   600368.97415289   579185.716068078    84270.301691078      518.502856695      876.633742099      532.174012316        7.466597346
  600820.791222049   579621.431108355    84363.029404801      518.554242378      876.708763438      532.267303097        7.471874453
  601134.072398789   579920.689443992    84455.379700899      518.563308857      876.603289085      532.267774903        7.476228305
  601715.792768826    580481.24703912     84548.67804913      518.647652094      876.711436925      532.354398486        7.482966372
  602035.318908698   580788.185594385    84641.225809105      518.661697726      876.680852181      532.405178056        7.487069717
  602692.747426576   581422.430358148    84734.932403356      518.767051387      876.848622439      532.515843657        7.494481319
  603111.972842887   581824.803735314    84827.953496497      518.805558317      876.826919662      532.550165075        7.499778365
  603540.796305419   582238.128815684    84921.100599171       518.85000543      876.882797238      532.635845047        7.504853285
  604136.750602697   582812.522365179    85014.855752916      518.937795744      877.000841278      532.726488366        7.511720959
  604693.344243753   583348.598079048    85108.566473605      519.014454647      877.087366657      532.804440981        7.518239806
  605185.036138328   583823.112928557    85202.163296686      519.076188737      877.192401918      532.909959133        7.523874122
  605603.652869219   584224.878236261    85295.594863323      519.114124867      877.169369892      532.943818099        7.529168799
  606178.669190655   584780.495999452    85389.624987508      519.198916283      877.339821426       533.07570071        7.535543734
  606650.886013577   585234.427828231    85483.394336936      519.251630598      877.358719765      533.126463112        7.541315626
  607148.806764489   585713.374942506    85577.329105136      519.311420888      877.397678263      533.185312976        7.547316517
  607562.768535216   586112.222967168    85671.089357554      519.351040781      877.440541556      533.265887332        7.552262097
  608095.937027097   586625.472256438    85765.303074448      519.420463795      877.506834658       533.33575884        7.558577234
   608813.16720221     587317.8731249    85860.191155989      519.540934975      877.717452947      533.463688035        7.566527892
  609108.420054265   587601.193473736    85953.818857266      519.547493432      877.667738691      533.507398663        7.570415025
  609676.520341267   588148.500936765     86048.39311334      519.628051489      877.766169425      533.591228094        7.577017466
  610663.553059192    589103.51752915    86144.395382466      519.824725908      878.190616131      533.805418605        7.587349311
  610852.092985176   589283.077540941    86237.929015137      519.804083519      878.065523797      533.820504578        7.590251383
  611211.099794792   589626.924358611    86332.081191295      519.827456675      878.003873369      533.840999527        7.594978509
  612149.247191216   590534.331508036    86428.174765773      520.009966105       878.38783365      534.038710796        7.604880751
  612211.777231108   590591.294207835    86521.554960875      519.954762705      878.167084623      534.016199399        7.606652299
   612677.64737079   591039.121431384    86616.300064436      520.007296434      878.187255027      534.069281046         7.61233592
  613285.566571539   591625.170679119    86711.583865841      520.098726568      878.316262022      534.165621619        7.619289602
  613739.893155633   592063.387936991    86806.471373038      520.150929211      878.396455908      534.262828261        7.624562503
   614789.76849046   593079.490581763    86903.338402027      520.363175529      878.863393529      534.493472184        7.635465841
  614924.504947271   593205.081829062    86997.355957718      520.324630707      878.628961137      534.445401859        7.638193565
  615213.782538854   593482.690670371    87091.965674481      520.331382076      878.582346508      534.492292762          7.6419924
   615806.69090917   594054.115041804    87187.618845624      520.418142451      878.698416972        534.5835263        7.648814752
  616334.902779966    594562.58139876    87283.148581981      520.487095753      878.764762003      534.655024353        7.655059581
  616768.308910957   594980.433920216    87378.471284537      520.533049464      878.827953052      534.745575057         7.66014724
   617350.34246574   595540.652236054    87484.791318617      520.608121888      878.897462323      534.823373374        7.667043635
  618089.437259573   596254.306913316    87581.256393618      520.734284169      879.123603025       534.95830743        7.675174862
  618369.890415111    596523.32494516    87676.351088743      520.738263538      879.069870933      535.002514257        7.678896548
  619215.511708894   597340.626327728    87773.324450089      520.893161508      879.376190786      535.169261025        7.687980762
  619569.022368552   597679.079659361    87868.808367159      520.913920955       879.30826799      535.187544034        7.692667965
  619920.042839852   598016.760380934    87964.381382736      520.936929428       879.30792787      535.252998374        7.697021101
  620539.295388905   598613.784266111     88060.88313811      521.029838636      879.441351565      535.351169706        7.704084167
  620945.982475211   599005.628922364    88156.802687326      521.067834286      879.482993185      535.433311137        7.708935259
  621945.754768255   599972.899725242    88254.688238088      521.263786713      879.903643319       535.64536874        7.719399744
  622206.044822254   600220.633560568    88350.296108364      521.258905406      879.764570897       535.63551773        7.723256799
  622442.107751722   600446.455757087     88445.92435743      521.250382596      879.676883381      535.666464899        7.726583781
  623016.654220828   600999.962176978    88542.704953852      521.330618495      879.775129865      535.750730925        7.733250085
  623528.485073442   601492.442164582    88639.369978205      521.393755584      879.825800424      535.816161526        7.739356468
  624079.388950905   602024.602526666    88736.256735987      521.470313128      879.975261351       535.94110786        7.745498294
  624581.045238013   602507.176524929    88833.058562952      521.530502371      880.017810026      536.003341623         7.75151479
  625122.925052518   603028.883580238    88930.073341697      521.601472842      880.090383751      536.077473496        7.757891479
  625863.644591867   603745.726255635    89027.819170261      521.728961726      880.381654649      536.258591617        7.765730664
  626199.427506941   604066.897880722    89124.346581934      521.744071373      880.298939173      536.271264147         7.77026639
  626812.846377163   604658.199933459    89221.843661709      521.834021025       880.42436392      536.366333186        7.777284223
  627267.098079095   605096.309799329    89318.931144906      521.883868914      880.499902089      536.462093385        7.782563878
  627784.373522267   605594.060567382    89416.291878657      521.947694329      880.552785878      536.528477926        7.788723412
  628224.602593764   606016.844498269    89513.492438173       521.99068862      880.547844753      536.572008131        7.794194881
    628773.5208367   606547.057483787    89611.136643337      522.065759844       880.69367671      536.695614676        7.800321589
  629296.629549519    607050.47395271    89708.771352391      522.130877621      880.750273649       536.76350301        7.806534957
  630426.688360242   608144.421355484    89808.422793181      522.358880535      881.259177454      537.010256991         7.81817343
  630737.189982566   608442.658318523    89905.563507702         522.369566      881.226291315      537.063204393        7.822170397
  630929.538012105   608624.251195573     90002.40180601      522.345609607      881.035752243      537.033412221        7.825429279
  631357.035627523   609034.630111166    90100.073844176      522.384698727      881.020290784      537.072872546        7.830790305
  631809.698365587   609471.183385274     90197.92400036      522.433350527      881.093210753      537.167744662        7.836058257
  632798.661068803   610427.822749808    90297.551462254      522.622624816      881.494293421      537.371777487        7.846439151
   633265.88015442   610876.836760848    90395.606148125      522.672055986      881.507591399      537.422610908        7.852157136
  634001.024079724   611588.218029007    90494.610474325       522.79590425      881.789105139      537.599919183        7.859950612
  635484.976452925   613026.445828158    90596.069263191      523.116498482      882.554630514      537.948143738        7.874752514
  635328.122961255   612868.258754317    90692.395744229      522.999072169      882.105005071      537.815906514        7.874898287
  635155.417673814   612696.369520319    90788.773583708      522.880276882      881.714257324      537.727742112        7.874579204
  635771.297769519   613290.002841497    90887.729308671       522.96896431      881.836546671      537.821673061        7.881628696
  636015.352754983   613523.591981528    90985.603796844      522.961285992      881.754116449      537.855374724        7.885033934
