!          P3 (Pa)           P4 (Pa)           P7 (Pa)            T3 (K)            T4 (K)            T5 (K)         W3 (kg/s)        
 2035782.563503306  1971134.565123401    88381.226588756      775.339661396     1411.005011041      664.186416637       19.642196243
 2023571.788947307  1959319.206343543    88277.294173949      774.077767805     1409.037104906      664.052617523       19.539125145
 2010814.594879248  1946974.291191028    88169.223932458      772.756551853     1406.960398632      663.908331397       19.431438294
 1997792.801685534  1934373.432001288    88059.498336474      771.403088049      1404.83581226       663.76733507       19.321387267
 1984912.198294008  1921909.963444041    87951.567243583      770.058362965     1402.741487861      663.641351483       19.212311362
 1972442.079024737  1909844.657322361    87847.657068665      768.750443986     1400.725491106      663.535133316       19.106470659
 1961838.181332933   1899588.10579685    87759.827232917       767.62985516     1399.064055128      663.483259031       19.015966921
 1952363.008800917   1890425.39462166     87681.74695231       766.62259627     1397.615183987      663.463795262       18.934747704
 1943824.617683588  1882170.518835084    87611.718789644       765.70975211     1396.343770676      663.471317492       18.861239782
 1933347.387578519  1872037.529080876     87526.01134775      764.592446276     1394.712676505       663.44423613       18.771453957
 1923484.631188914  1862500.072934632    87445.720606106      763.535851533      1393.19773933      663.437147088       18.686690547
 1910359.633454091  1849802.701748898    87339.217734014      762.133286344     1391.076902884      663.374169938       18.574487588
 1902092.069996276  1841811.251761909    87272.665034968      761.237028981     1389.866860302      663.415637389       18.502831475
 1892536.501703508  1832572.289210985    87195.954084588       760.20241794     1388.418009738      663.438836381       18.420286701
 1881833.939743674  1822222.704127247    87110.355852062      759.042765459     1386.760757081       663.45105666       18.327971339
 1872008.115051047  1812722.594061739    87032.175054557      757.972616337      1385.26851959      663.486528516       18.242915023
 1857922.038927976  1799096.754297078    86920.454421812      756.442907501     1382.992917981      663.466010407       18.121764966
 1846836.226509598  1788377.316252504    86833.153815326      755.228590583     1381.279290547      663.505933745       18.025741885
 1837941.402993309  1779779.995309345    86763.534301139      754.246459618     1379.972282623      663.585307264        17.94814024
 1827297.551263996  1769489.329073971    86680.490481999      753.071885704     1378.349705193      663.651966053       17.855583001
 1819671.840172982  1762121.496966894    86621.398561306      752.221516906     1377.283212179      663.763113969       17.788545106
 1752804.465241654  1697404.318317269    86108.126921581      744.913118812     1365.710499139      663.539336404       17.213222858
 1740897.719788469  1685896.321608366    86018.885325731      743.576161851     1363.964000419      663.726162794       17.108170633
 1823072.455747189    1765462.7851932    86649.603589515      752.524114306     1378.881234084      664.397164304       17.810752111
 1970276.385906516  1908066.826793317    87840.549877205      768.034161884     1406.261582486       667.02712195       19.045600847
  423326.642512167   407571.600682249    79130.951650378      502.920513191      808.407891754      518.061753354        5.490232238
  422565.383163469   406841.003274783    79197.063613255      502.558908196      807.978565039      518.063859419        5.481924418
  556522.890623813   536819.050868815     79670.84971208      547.141827629      918.856803501      562.104614747        6.749316595
  699964.496900171    676614.13894777    80266.544015219      587.208037857     1039.892696687       612.69218002         7.95392682
  740786.943616496   716368.760975543    80514.901403631      595.940641476     1066.516340765      622.540746495         8.30605181
  665385.237818062   642901.382176916    80309.122001123      578.902109341     1013.519699092      602.315179702        7.664118624
  665726.568052734   643227.680994491    80397.527205992      578.911864483     1013.383515694      602.300195102        7.668581659
  667005.912144269   644469.655485317     80489.51933576      579.162398996     1014.047906578      602.633905485        7.680656837
  666748.722707693   644211.808196008    80575.846892738      579.019083382     1013.407559445      602.401205737        7.680238299
  667319.109764714   644761.695723805     80665.34636486      579.087462929     1013.466410165      602.471180912        7.686562527
  668368.939620579   645779.732382712    80756.718066205      579.279233608     1013.939921757      602.723617621        7.696751301
   668506.34390454   645907.073277382    80844.760291588      579.237124909     1013.636332287      602.637617054        7.699536685
  670465.427423315   647812.565161021    80939.686943195      579.660229914     1014.874072085      603.221058137         7.71712959
  670326.626486988   647670.130998064    81026.852031734      579.546860637     1014.328827095      603.027925817        7.717704264
  669749.305814495   647099.770044899    81112.466236896       579.32201533     1013.418684146      602.677802041        7.714691811
  670338.344450879   647667.968438105    81202.513936782      579.395298623     1013.498685005      602.758883456        7.721145184
  671034.571454535   648340.661215794    81293.039039553      579.495191139     1013.662376876      602.874543335        7.728496332
  674786.794941901    651996.67574403    81395.061906398      580.373353273     1016.416482841      604.120329059        7.760606496
   674210.80100906   651427.559073249    81480.989296772      580.149820017     1015.509454304      603.771451418         7.75761714
  677009.633309385   654152.787518764    81579.620230079      580.782014656     1017.443329095      604.658290484        7.782010333
  676401.714866552   653552.347926319    81665.580931136       580.55022029     1016.503601169      604.293250813        7.778795391
  674041.330001456   651241.382477158    81745.096652786      579.873762788     1014.093916537      603.290032459        7.761332101
  673955.170622124   651150.327213804    81833.187242952      579.773950447     1013.595583682       603.11747555         7.76233733
  674453.142257562   651629.594289458    81923.534853704      579.823344164     1013.596696838      603.164253365        7.768057487
  678900.351574531   655963.916105381    82028.686481056      580.873219361     1016.917743399      604.656796688        7.805812439
  677263.331952613   654358.926091161     82111.22129508      580.381331655     1015.116608385      603.916739922        7.794251024
  677132.886031628   654224.750933058    82199.467625744      580.271100991     1014.588306494      603.732997829        7.794875074
  676751.333600839   653845.338608081    82286.862579796      580.096548094      1013.84283984      603.452889332        7.793486896
  678419.735652997   655466.929070843    82381.961521035      580.441151252     1014.817485609      603.921647513        7.808737918
  680599.668108187   657587.990682108    82479.053032236       580.91451539     1016.224495277      604.580633194        7.828106045
  681117.621356934   658086.719781348    82570.034039429      580.967954535     1016.238874305      604.633196734        7.833994243
  681536.436041593   658488.536018622     82660.72443877      580.995693202     1016.163418375      604.644772352        7.839106647
  680245.519696371   657221.573837575    82745.138079369      580.593084663     1014.666774148      604.039456829        7.830321658
  679762.286960175    656743.03946077    82832.646792805      580.393910189     1013.845649316       603.72838562        7.828084053
  680297.719281603   657258.687021178    82924.016630258      580.451258333     1013.868958072      603.783011982        7.834144083
  681680.269311664    658601.19411892     83018.60956857      580.722069443      1014.59841211      604.144989634        7.847082286
  681633.608557798   658548.789725579    83107.982900245      580.633157586      1014.14256602       603.99294801        7.848390905
  681824.498715215   658728.121582998    83198.318106624      580.603430153     1013.878110759       603.92235435        7.851655618
  682176.501271123    659064.84586252    83289.333879964      580.614931286      1013.75476065       603.91506355        7.856201495
  682533.648869414   659406.589324784     83380.45021981      580.627693794     1013.635698506      603.909650967        7.860789721
  683156.879594639   660007.906610107    83472.630800221      580.706701046     1013.730864582      603.995579961        7.867567499
  683784.863054993   660613.857567222    83564.909923064      580.786788232     1013.829619587       604.08307454        7.874384665
  685197.687249549   661985.994754931    83660.176815733      581.064421424     1014.585589973      604.458438738        7.887548005
  684676.514064736   661470.308134308     83748.36604662      580.855030543     1013.730513311      604.130873695        7.885036683
  685240.192767107   662013.712685211    83840.653730558      580.915413228     1013.779663175      604.198532936        7.891316697
  685763.370207883   662517.462918679    83932.871413448      580.964137028     1013.787735097      604.246415553        7.897298246
   686723.80928437   663447.925066883     84026.78582273      581.131522902     1014.169087493      604.458920886        7.906781526
  687610.010938029    664305.95831524    84120.507591761      581.278576934      1014.48732543      604.643910064        7.915666206
  687586.513045403   664276.380245381     84210.95203637       581.17943691     1014.036756338      604.491887941        7.917238683
  688684.034371944    665340.41840393    84305.613757377      581.382603317     1014.524121209      604.748736509        7.927858052
  688438.046178366   665093.926346936     84395.40441551      581.224094583     1013.894781653      604.520702059         7.92760838
  690113.349114233   666721.607309328    84492.358665384      581.582466397     1014.863357507      604.987309627        7.942891895
  690671.767154306   667259.845148466    84585.277990117       581.64045647     1014.905443289      605.051963216        7.949135355
  691864.880566549   668417.255235218    84680.620298099      581.868793348     1015.475746136      605.346838333        7.960500104
  693542.441953754   670047.321414299     84777.83461994      582.218178973     1016.435967637      605.809538542        7.975818984
  691523.829094035   668071.201786159    84861.490768962      581.591624563     1014.331827347      604.937190676        7.961283025
   692079.32565205   668606.577546362    84954.727456463      581.648577196     1014.371119567      605.000682411        7.967505671
  692194.745142415   668712.502798704    85046.425369534      581.586732378     1014.037634905      604.899824911        7.970205072
  694603.510696708   671055.782057603    85146.648389209      582.140103906     1015.614274851      605.633289505        7.991384886
  695713.427985608   672131.854355392    85242.171383842      582.344121816     1016.104046266      605.891192198        8.002110524
  694794.518861336   671228.889472699    85330.304932006      582.006226332     1014.920730892      605.421967325         7.99644045
  695265.604690697   671681.900671866    85423.641196809      582.040033628     1014.888657529      605.454411315        8.001985518
  694899.549336739   671318.130681942    85513.981965255      581.849273334     1014.157010489      605.180129073        8.000802324
     696747.272306   673113.909657594       85612.540815      582.250313282     1015.256012855      605.703536057        8.017488432
  698049.819515471   674378.006217906    85709.182177121      582.505560793     1015.909155888      606.034551862        8.029744829
  699889.358865753   676165.800298571    85807.883396545      582.902482423     1016.995737639      606.552470278        8.046360184
  702300.810543711   678511.653966882    85908.785128164      583.450516256     1018.555472359      607.278318003        8.067554394
  698024.370929778    674333.24026489    85985.136485117      582.220932611     1014.610201876      605.604219354        8.034837326
  699052.383956651    675329.50366291    86081.094887851      582.402613694     1015.035710245      605.836104214        8.044882786
  699450.273415337   675710.941320977    86174.821390101      582.415708866     1014.935248924      605.836931677        8.049871341
  703199.978243704   679362.043410444    86280.948766096      583.318506543     1017.584627208      607.035616157        8.081903677
  704251.551744844   680381.274077115    86377.244979675      583.504706197     1018.024043737      607.273495759        8.092137794
  702239.961111954    678412.40330206    86462.357305343      582.879705206     1015.956219895      606.419354961         8.07766574
  701264.087392299   677453.758273383    86551.377310951      582.527823736     1014.729211514      605.929503902        8.071569135
  701464.568126835   677642.763864484    86644.798920175      582.488809898     1014.473700824      605.864781492        8.074938278
  704136.432551424   680242.360928011    86747.357381112      583.104389738     1016.233067728      606.675764515        8.098286595
  703798.721077766   679906.216508541    86838.966560175      582.922159013     1015.530207167      606.414286185        8.097344234
  703192.000688466   679307.823966071     86929.68191913      582.669149706     1014.614888446      606.062215725        8.094199342
  703887.217387485   679979.260256605    87025.245245605      582.760488641     1014.756600267      606.168622886        8.101595081
    704339.5990726   680413.968251448    87120.005541965      582.788000265     1014.706790652      606.193563239        8.107001628
  706244.739818977   682265.607105009    87220.161921599      583.198874521     1015.833546785      606.728986776        8.124166574
  705557.585777576   681588.755584948       87310.919528      582.925055674     1014.855021646      606.349480934         8.12037527
  705914.669149648   681930.496947461    87405.582089051      582.927152203     1014.727192107      606.340480826        8.125014357
  706779.472932792   682767.330567104    87502.181115829      583.062687795     1015.005227765      606.506294201        8.133783394
   708394.43320462   684335.883707132    87601.605747245      583.395716918     1015.891591691      606.937014598         8.14860903
    709898.7530628   685796.660711688    87700.713868412      583.699412414      1016.69286955      607.332604034         8.16251065
  708434.786353714    684361.13551429    87799.465221336      583.210699924     1015.031216482      606.658132453        8.152691061
  708751.953019299   684663.925757308    87894.410398335      583.201966112     1014.870561726      606.634901758         8.15701143
   709282.30765687   685174.508896439    87990.215530704      583.248734688     1014.875562636      606.681859167        8.163083686
  711222.126733466   687060.041839629    88091.249654678      583.666495511     1016.027297595      607.230079136         8.18050774
  710746.737584823   686589.603458059    88183.551299576      583.448737097     1015.218455651      606.922704525        8.178461243
    711002.4751043   686832.312818863    88278.606900318      583.423046561     1015.000802623      606.872745012        8.182318081
  711794.082198694   687597.855237147    88375.701692432      583.538637317     1015.222910226      607.016227341        8.190473548
   712127.07362076   687915.911740679    88471.207490606      583.533136437     1015.067547971      606.993411861        8.194955735
  713155.471031065   688912.407449476     88569.33265356      583.710528909     1015.479650898      607.219625049        8.205024932
  713196.519876437   688945.700573266    88663.943790848      583.628391159     1015.088973999      607.094388423        8.207150917
  714870.130176461   690571.515987131    88764.586799536      583.974283628     1016.018792423      607.545986218        8.222431729
  715670.123338333   691345.061233907    88862.130087469      584.090549946     1016.237757593      607.686158973         8.23068805
  717829.296325675   693444.332255122    88964.715068774      584.561126661     1017.545656079        608.3003291        8.249915362
  716612.702196418   692251.066265126    89055.076139312      584.151567955     1016.154148662       607.74147115        8.241865276
  715958.585157955   691606.301773551    89147.581240228      583.887842237     1015.206570793      607.373892294        8.238381288
  717831.501299551   693426.475504861     89249.36622003      584.284334777     1016.291197031      607.892872282        8.255275663
  719164.983553995   694720.499575975    89349.275327629      584.539380753     1016.941664178      608.222857269        8.267812617
  720874.642277797   696381.280731421    89450.639742237      584.891001161     1017.883460993      608.677646852        8.283414817
  723436.363610983   698873.154309103    89555.204723622      585.462388158     1019.500728162      609.426351648        8.305887245
  719195.811626909    694730.40832742    89635.059836053      584.269343682     1015.705439045      607.821562033        8.273438135
  719516.924304525   695036.836645215    89731.623289654       584.26001053     1015.539570997      607.794318772        8.277834121
  720586.129931708      696073.064174    89830.989849689      584.445762832     1015.977225277      608.031727541        8.288242826
  722477.053302877   697910.592869975    89933.426209532      584.843762626     1017.060354364      608.548038735        8.305316755
  723486.763093314   698888.780964855     90032.74763461      585.013145661     1017.447787991       608.76357607        8.315244666
  722558.826829299   697976.936132549     90125.11032565      584.679785497       1016.2886502      608.304147312        8.309559784
  723114.643049278   698512.259440055    90222.950421314      584.730975158     1016.308573703      608.357802268        8.315855419
  723751.766915064   699127.036760688    90321.172682593      584.803721745     1016.399977795      608.444564725        8.322777872
  723417.638820009    698794.36905187    90415.956757394      584.624249858     1015.713697637      608.190952191        8.321886818
  724969.128716218   700300.940117657    90517.664302862      584.933558935     1016.529596207      608.592976895        8.336196184
  724559.167749456   699894.309041608    90612.345660124      584.734580344     1015.783979115      608.313581965        8.334694083
  726373.014576737    701656.74713261    90715.173279264      585.111133763     1016.805559162      608.805095855        8.351123799
  728184.056127365    703416.29273954    90818.078600107      585.485361073     1017.814813639      609.289224673        8.367558681
  727527.891329497   702769.515879894    90912.118785999      585.223343495      1016.87618421      608.925905978        8.364074352
  727907.982394831   703133.577516473    91010.006876412      585.229025473     1016.762727374      608.923606895        8.368926175
   728331.17049649   703539.511439476    91108.135160862      585.245180469     1016.676013484      608.930948606        8.374157602
   728017.21409996   703226.668147667    91203.684747941      585.071922568      1016.01573932      608.690799516        8.373404096
   728423.50359683   703616.118723059    91301.925302589      585.083700474      1015.91600894      608.692506645        8.378500058
